# radius (models) [pc],M 95% CL low [1],M 68% CL low [1],M median [1],M 68% CL high [1],M 95% CL high [1]
2.256394649279303266e+01,-4.017378600393032850e-01,-1.127890020473323179e-01,-5.672436379576636933e-02,5.711234327993676418e-03,3.901652808139501327e-01
5.337613043897662379e+01,-2.997752714708885602e-01,-7.576127065338492117e-02,-2.319285656578649879e-02,3.694985892718764819e-02,6.336825158704114669e-01
7.470466475518688299e+01,-2.596418999098221159e-01,-5.146698824404268013e-02,-6.577225615785747825e-04,6.261748072215381211e-02,8.075369972869214097e-01
9.914468501960577385e+01,-2.232925036165155919e-01,-2.541649877686877335e-02,2.277060725820218012e-02,1.002198381729808158e-01,1.000000000000000000e+00
1.292816780189140502e+02,-1.815727627619737328e-01,3.717610009014410410e-03,4.967606919006899158e-02,1.421108959576419806e-01,1.000000000000000000e+00
1.710951681149589376e+02,-1.285345793534853343e-01,4.067454846882632979e-02,8.506111223098483665e-02,2.119669491375735237e-01,1.000000000000000000e+00
2.350046816186589638e+02,-5.585957251549661384e-02,9.350627316974169378e-02,1.408641195267205659e-01,3.199572779985072057e-01,1.000000000000000000e+00
3.300110229763188840e+02,3.651509023986973523e-02,1.681570781433336104e-01,2.249374373796047544e-01,4.825383666304147168e-01,1.000000000000000000e+00
4.697956793235183000e+02,1.495299679761100120e-01,2.823390817563718458e-01,3.570019034021119086e-01,7.300066973768768452e-01,1.000000000000000000e+00
7.026156533546377432e+02,2.919221753507860173e-01,4.776133747474268221e-01,5.905828788968155996e-01,1.000000000000000000e+00,1.000000000000000000e+00
1.405231306709275486e+03,6.543989144896128485e-01,1.000000000000000000e+00,1.000000000000000000e+00,1.000000000000000000e+00,1.000000000000000000e+00
2.810462613418550973e+03,1.000000000000000000e+00,1.000000000000000000e+00,1.000000000000000000e+00,1.000000000000000000e+00,1.000000000000000000e+00
5.620925226837101945e+03,1.000000000000000000e+00,1.000000000000000000e+00,1.000000000000000000e+00,1.000000000000000000e+00,1.000000000000000000e+00
