radius (analytic) [pc],analytic [1],radius (models) [pc],M 95% CL low [1],M 68% CL low [1],M median [1],M 68% CL high [1],M 95% CL high [1]
56.19226943648881,0.0062755115,56.19226943648881,-0.1226010986624,0.06749758853193,0.1312708829,0.249121403595121,0.744703539471026
127.44533698947356,0.0314625777,127.44533698947356,-0.0385736174335,0.12216229180895,0.1983303825,0.318106369515004,0.820185326819284
185.73956514019105,0.0645448804,185.73956514019105,0.01790385483247,0.16489574692712,0.2536852747,0.375212625850693,0.879389544361631
240.9030428421081,0.1039976907,240.9030428421081,0.05403632650378,0.20358784269875,0.3042977996,0.432691282493813,0.925986966023884
299.83778189135916,0.1524025846,299.83778189135916,0.09894130104645,0.24571698856751,0.3583759245,0.493961827315041,0.988408426677627
367.0410678794617,0.2122500108,367.0410678794617,0.14955731672193,0.29105653951744,0.4140894514,0.569232105833781,1.0
448.2760398543724,0.2866837924,448.2760398543724,0.20267633109794,0.34650197203852,0.4794844664,0.657781105233090,1.0
553.6866318535689,0.3800901466,553.6866318535689,0.27180672194506,0.41319040797682,0.5648725655,0.769765336991673,1.0
713.2295078140434,0.5043106783,713.2295078140434,0.36279369096316,0.51550690323578,0.6967291770,0.941825934889276,1.0
991.0560959637311,0.6626618295,991.0560959637311,0.50119571569304,0.68634781074627,0.9226855235,1.0,1.0
1982.1121919274622,0.8871018043,1982.1121919274622,0.95427411066430,1.0,1.0,1.0,1.0
3964.2243838549243,0.9691644965,3964.2243838549243,1.0,1.0,1.0,1.0,1.0
7928.448767709849,0.9921086232,7928.448767709849,1.0,1.0,1.0,1.0,1.0
