radius (analytic) [pc],analytic [log(Msun/pc^3)/log(pc)],radius (models) [pc],M 95% CL low [log(Msun/pc^3)/log(pc)],M 68% CL low [log(Msun/pc^3)/log(pc)],M median [log(Msun/pc^3)/log(pc)],M 68% CL high [log(Msun/pc^3)/log(pc)],M 95% CL high [log(Msun/pc^3)/log(pc)]
28.096134718244404,-0.1946229833981808,28.096134718244404,0.012711659512171533,0.33009341621026406,0.7230180921801024,1.2758627446737931,2.6574059924886155
56.19226943648881,0.3848654542447156,56.19226943648881,0.015985714309307234,0.4577080568386883,0.9504381130286748,1.7832830965748385,4.836732030316215
127.44533698947356,0.3898433842807545,127.44533698947356,0.02624887576608449,0.2516611667619793,0.4978090951581077,0.9861208689317963,4.089464502103851
185.73956514019105,0.4946636269800992,185.73956514019105,0.2779081973971783,2.082972675845017,2.9680690084757995,3.3448852400797078,4.517716120271041
240.9030428421081,0.5993791600002122,240.9030428421081,0.12779044879471047,1.5773718082007218,2.431908567550259,3.0315731537200628,4.33638493300823
299.83778189135916,0.7011130699090615,299.83778189135916,0.1269424375467916,0.9064767076784429,1.2802768967214657,1.7687687520247903,3.7973711712690132
367.0410678794617,0.8062910946526562,367.0410678794617,0.01762258466713161,0.30197623839767773,0.5636809544598484,1.0465499727380458,3.88583052422846
448.2760398543724,0.9195811920588335,448.2760398543724,0.029439830809596886,0.5453872150904525,1.0500979379159183,1.7103980516243125,4.3478730068595866
553.6866318535689,1.0470129412175915,553.6866318535689,0.030683118085356398,0.43082914195725336,0.68283332390725,0.9050875772064413,3.0967818433429093
713.2295078140434,1.2025904261469849,713.2295078140434,0.011297591039416969,0.12661825446479658,0.23869017784165336,0.47078046611291746,3.41629549931715
991.0560959637311,1.4086265946707412,991.0560959637311,0.0025213837551163465,0.045153758954189833,0.14605102086930116,0.33096461200792465,2.7144213521754157
1982.1121919274622,1.7714019739089588,1982.1121919274622,0.0009405399450323427,0.008859878728818403,0.029295946758977752,0.14003164084313735,2.7308902689160277
3964.2243838549243,2.2123217967266737,3964.2243838549243,0.04436058307398504,0.08674604279945065,0.10494756441584287,0.19295517872887552,3.7130290996036406
7928.448767709849,2.541843094730004,7928.448767709849,0.464867741255226,3.3720375532285702,4.113957805705375,4.5393819765257195,4.9266279538883255
237853.46303129545,2.8989936668744662,237853.46303129545,3.786973286588668,5.2484065358522,5.749172956239895,6.246552350581794,7.903005334991963
